3 0.7727272727272727 0.3787037037037037 0.768025078369906 0.38425925925925924 0.7654127481713688 0.3925925925925926 0.768025078369906 0.46944444444444444 0.7648902821316614 0.5120370370370371 0.7695924764890282 0.5537037037037037 0.768025078369906 0.5601851851851852 0.7607105538140021 0.5722222222222222 0.7601880877742947 0.5787037037037037 0.7622779519331243 0.5814814814814815 0.7789968652037618 0.5796296296296296 0.7810867293625914 0.5842592592592593 0.7810867293625914 0.5990740740740741 0.7889237199582028 0.6046296296296296 0.7936259143155695 0.6046296296296296 0.7957157784743991 0.5990740740740741 0.7910135841170324 0.5666666666666667 0.7878787878787878 0.5555555555555556 0.7894461859979102 0.55 0.7863113897596656 0.5425925925925926 0.7873563218390804 0.5388888888888889 0.7836990595611285 0.5268518518518519 0.7831765935214211 0.5018518518518519 0.7842215256008359 0.49444444444444446 0.7863113897596656 0.49166666666666664 0.7857889237199582 0.48703703703703705 0.7931034482758621 0.46296296296296297 0.7941483803552769 0.44907407407407407 0.7915360501567398 0.4388888888888889 0.7899686520376176 0.4185185185185185 0.7816091954022989 0.4009259259259259 0.780564263322884 0.3861111111111111 0.776907001044932 0.3787037037037037
3 0.8207941483803552 0.3768518518518518 0.8171368861024033 0.3768518518518518 0.8140020898641588 0.38055555555555554 0.8124346917450366 0.4046296296296296 0.8072100313479624 0.42685185185185187 0.7925809822361547 0.44166666666666665 0.7951933124346917 0.44814814814814813 0.800417972831766 0.44814814814814813 0.8103448275862069 0.4351851851851852 0.8150470219435737 0.45092592592592595 0.8140020898641588 0.4601851851851852 0.8103448275862069 0.45925925925925926 0.8061650992685475 0.46296296296296297 0.8077324973876698 0.4666666666666667 0.8134796238244514 0.46944444444444444 0.812957157784744 0.4787037037037037 0.8014629049111808 0.5111111111111111 0.8051201671891327 0.5472222222222223 0.803030303030303 0.5546296296296296 0.7972831765935214 0.5638888888888889 0.7962382445141066 0.5712962962962963 0.799373040752351 0.5740740740740741 0.8140020898641588 0.5722222222222222 0.8150470219435737 0.5583333333333333 0.8134796238244514 0.5268518518518519 0.8155694879832811 0.5222222222222223 0.8213166144200627 0.5194444444444445 0.8296760710553814 0.5416666666666666 0.8349007314524556 0.5638888888888889 0.835423197492163 0.5777777777777777 0.8301985370950888 0.5916666666666667 0.835423197492163 0.5972222222222222 0.8448275862068966 0.5925925925925926 0.8463949843260188 0.5888888888888889 0.8463949843260188 0.5777777777777777 0.8437826541274818 0.5703703703703704 0.8427377220480669 0.55 0.8333333333333334 0.5074074074074074 0.8359456635318704 0.4861111111111111 0.8385579937304075 0.48055555555555557 0.8385579937304075 0.46574074074074073 0.835423197492163 0.4462962962962963 0.8359456635318704 0.4287037037037037 0.8333333333333334 0.41388888888888886 0.8281086729362591 0.40370370370370373 0.8286311389759665 0.38333333333333336 0.8244514106583072 0.3768518518518518
3 0.8171368861024033 0.6 0.812957157784744 0.6083333333333333 0.8119122257053292 0.6314814814814815 0.8035527690700105 0.6472222222222223 0.8035527690700105 0.6518518518518519 0.8098223615464994 0.6648148148148149 0.809299895506792 0.675 0.803030303030303 0.687962962962963 0.800417972831766 0.7268518518518519 0.8035527690700105 0.7333333333333333 0.8066875653082549 0.7305555555555555 0.8051201671891327 0.7138888888888889 0.809299895506792 0.7018518518518518 0.8098223615464994 0.6925925925925925 0.8140020898641588 0.6925925925925925 0.8150470219435737 0.7037037037037037 0.8134796238244514 0.7287037037037037 0.8166144200626959 0.7666666666666667 0.8270637408568443 0.812037037037037 0.8275862068965517 0.8333333333333334 0.832810867293626 0.837037037037037 0.8380355276907001 0.8287037037037037 0.845350052246604 0.8296296296296296 0.8510971786833855 0.8194444444444444 0.8432601880877743 0.7824074074074074 0.8406478578892372 0.7472222222222222 0.8427377220480669 0.7268518518518519 0.845350052246604 0.7203703703703703 0.851619644723093 0.7324074074074074 0.8537095088819227 0.7296296296296296 0.8500522466039707 0.7166666666666667 0.8479623824451411 0.6935185185185185 0.841692789968652 0.6768518518518518 0.8406478578892372 0.6481481481481481 0.8265412748171369 0.6268518518518519 0.8275862068965517 0.6083333333333333 0.8249738766980146 0.6027777777777777 0.8207941483803552 0.6
3 0.9979101358411703 0.7703703703703704 0.9942528735632183 0.774074074074074 0.9947753396029259 0.7796296296296297 0.9979101358411703 0.7833333333333333 0.9994775339602926 0.7833333333333333 0.9994775339602926 0.7703703703703704
3 0.9984326018808778 0.5333333333333333 0.9958202716823407 0.5527777777777778 0.9984326018808778 0.5685185185185185 0.9994775339602926 0.5333333333333333
3 0.9979101358411703 0.5824074074074074 0.9947753396029259 0.5925925925925926 0.9942528735632183 0.6055555555555555 0.990073145245559 0.6240740740740741 0.9702194357366771 0.6481481481481481 0.9691745036572623 0.6555555555555556 0.9707419017763845 0.6611111111111111 0.9738766980146291 0.6611111111111111 0.9796238244514106 0.6537037037037037 0.9926854754440961 0.6444444444444445 0.9994775339602926 0.6333333333333333 0.9994775339602926 0.5824074074074074
5 0.7445141065830722 0.14907407407407408 0.7408568443051202 0.1537037037037037 0.7392894461859979 0.1675925925925926 0.731974921630094 0.1814814814814815 0.7288401253918495 0.20092592592592592 0.7283176593521421 0.2351851851851852 0.7293625914315569 0.24166666666666667 0.7361546499477534 0.25462962962962965 0.7382445141065831 0.27037037037037037 0.7377220480668757 0.2898148148148148 0.7403343782654127 0.29259259259259257 0.7288401253918495 0.3175925925925926 0.7293625914315569 0.3314814814814815 0.7398119122257053 0.337037037037037 0.7445141065830722 0.3333333333333333 0.7471264367816092 0.33611111111111114 0.7607105538140021 0.3351851851851852 0.7638453500522466 0.3277777777777778 0.7638453500522466 0.3148148148148148 0.7622779519331243 0.3074074074074074 0.7575757575757576 0.3 0.7560083594566354 0.2777777777777778 0.758098223615465 0.25092592592592594 0.7633228840125392 0.2462962962962963 0.7654127481713688 0.24074074074074073 0.764367816091954 0.23703703703703705 0.7664576802507836 0.19814814814814816 0.7633228840125392 0.1824074074074074 0.7528735632183908 0.16666666666666666 0.7513061650992685 0.1537037037037037 0.7481713688610241 0.14907407407407408
5 0.3490073145245559 0.25277777777777777 0.3437826541274817 0.2638888888888889 0.34117032392894464 0.27870370370370373 0.3338557993730408 0.28888888888888886 0.335423197492163 0.2935185185185185 0.3343782654127482 0.3074074074074074 0.329153605015674 0.32314814814814813 0.33124346917450365 0.3314814814814815 0.3349007314524556 0.32685185185185184 0.3375130616509927 0.3351851851851852 0.3385579937304075 0.35462962962962963 0.34273772204806685 0.3824074074074074 0.34273772204806685 0.42592592592592593 0.3406478578892372 0.44351851851851853 0.3448275862068966 0.44814814814814813 0.3510971786833856 0.44537037037037036 0.35214211076280044 0.43333333333333335 0.35318704284221525 0.43796296296296294 0.3557993730407524 0.4388888888888889 0.3552769070010449 0.44166666666666665 0.35893416927899685 0.4444444444444444 0.3652037617554859 0.4425925925925926 0.3662486938349007 0.4398148148148148 0.3620689655172414 0.4287037037037037 0.3620689655172414 0.4166666666666667 0.36363636363636365 0.39537037037037037 0.3662486938349007 0.38333333333333336 0.36468129571577845 0.34814814814814815 0.3672936259143156 0.3287037037037037 0.3667711598746082 0.3055555555555556 0.36311389759665624 0.28703703703703703 0.3568443051201672 0.27685185185185185 0.35318704284221525 0.262037037037037 0.35370950888192265 0.25833333333333336 0.3490073145245559 0.25462962962962965
5 0.6886102403343782 0.9157407407407407 0.6844305120167189 0.9175925925925926 0.6812957157784744 0.9277777777777778 0.6818181818181818 0.9361111111111111 0.687042842215256 0.9435185185185185 0.6901776384535006 0.9435185185185185 0.6927899686520376 0.9388888888888889 0.6948798328108673 0.9212962962962963 0.6927899686520376 0.9157407407407407
5 0.7115987460815048 0.9157407407407407 0.7063740856844305 0.9175925925925926 0.7079414838035528 0.9416666666666667 0.7100313479623824 0.9444444444444444 0.7163009404388715 0.9425925925925925 0.7210031347962382 0.9361111111111111 0.7199582027168234 0.9259259259259259 0.7142110762800418 0.9157407407407407
5 0.6985370950888192 0.6888888888888889 0.6927899686520376 0.6981481481481482 0.6912225705329154 0.7240740740740741 0.6833855799373041 0.7333333333333333 0.6818181818181818 0.7388888888888889 0.6818181818181818 0.7527777777777778 0.6781609195402298 0.7712962962962963 0.677115987460815 0.8064814814814815 0.6792058516196448 0.8111111111111111 0.6802507836990596 0.8342592592592593 0.6839080459770115 0.837037037037037 0.7121212121212122 0.837037037037037 0.7210031347962382 0.8342592592592593 0.7215256008359456 0.812037037037037 0.7236154649947754 0.8074074074074075 0.7215256008359456 0.7685185185185185 0.7173458725182863 0.7583333333333333 0.7168234064785789 0.7361111111111112 0.7068965517241379 0.7231481481481481 0.7063740856844305 0.6944444444444444 0.7027168234064786 0.6888888888888889
4 0.2716823406478579 0.4074074074074074 0.26750261233019856 0.4111111111111111 0.26541274817136884 0.4203703703703704 0.26436781609195403 0.4361111111111111 0.2669801462904911 0.44907407407407407 0.2617554858934169 0.46296296296296297 0.25966562173458724 0.4777777777777778 0.25130616509926856 0.5064814814814815 0.2554858934169279 0.5462962962962963 0.24294670846394983 0.5740740740740741 0.23981191222570533 0.5851851851851851 0.23981191222570533 0.5916666666666667 0.24242424242424243 0.5990740740740741 0.24817136886102403 0.5981481481481481 0.2560083594566353 0.5694444444444444 0.2690700104493208 0.55 0.2722048066875653 0.5388888888888889 0.27638453500522464 0.537962962962963 0.28213166144200624 0.5398148148148149 0.2884012539184953 0.5472222222222223 0.2894461859979101 0.6046296296296296 0.30355276907001044 0.6055555555555555 0.30825496342737724 0.6018518518518519 0.2988505747126437 0.5879629629629629 0.296760710553814 0.5740740740740741 0.30094043887147337 0.5398148148148149 0.2988505747126437 0.5259259259259259 0.2962382445141066 0.5212962962962963 0.2894461859979101 0.5203703703703704 0.2889237199582027 0.5148148148148148 0.28213166144200624 0.5083333333333333 0.28056426332288403 0.5027777777777778 0.2826541274817137 0.49722222222222223 0.29571577847439917 0.49722222222222223 0.2941483803552769 0.487962962962963 0.2946708463949843 0.4703703703703704 0.3004179728317659 0.46296296296296297 0.306687565308255 0.462037037037037 0.30825496342737724 0.45925925925925926 0.3077324973876698 0.45185185185185184 0.3014629049111808 0.4425925925925926 0.2998955067920585 0.4203703703703704 0.296760710553814 0.42407407407407405 0.29728317659352144 0.4287037037037037 0.2946708463949843 0.4361111111111111 0.2894461859979101 0.43796296296296294 0.2857889237199582 0.4324074074074074 0.2878787878787879 0.42592592592592593 0.28683385579937304 0.4148148148148148 0.2826541274817137 0.4111111111111111 0.27899686520376177 0.41388888888888886 0.2727272727272727 0.4074074074074074
4 0.2199582027168234 0.462037037037037 0.21839080459770116 0.4638888888888889 0.219435736677116 0.475 0.22936259143155696 0.5092592592592593 0.24346917450365727 0.5148148148148148 0.2507836990595611 0.5148148148148148 0.25705329153605017 0.49074074074074076 0.25653082549634276 0.48148148148148145 0.2413793103448276 0.475 0.2309299895506792 0.4638888888888889 0.22413793103448276 0.462037037037037
4 0.46917450365726227 0.3907407407407407 0.46394984326018807 0.3972222222222222 0.46394984326018807 0.41574074074074074 0.46812957157784746 0.425 0.46342737722048066 0.44074074074074077 0.46029258098223613 0.43796296296296294 0.44200626959247646 0.4388888888888889 0.438871473354232 0.4425925925925926 0.438871473354232 0.44722222222222224 0.4592476489028213 0.45185185185185184 0.45977011494252873 0.4564814814814815 0.4566353187042842 0.45925925925925926 0.4665621734587252 0.46574074074074073 0.4696969696969697 0.47685185185185186 0.46812957157784746 0.4861111111111111 0.45297805642633227 0.5185185185185185 0.44618599791013586 0.5638888888888889 0.44043887147335425 0.5731481481481482 0.44200626959247646 0.5796296296296296 0.44618599791013586 0.5824074074074074 0.45297805642633227 0.5814814814814815 0.4555903866248694 0.5537037037037037 0.4592476489028213 0.5361111111111111 0.46342737722048066 0.5305555555555556 0.47910135841170326 0.5425925925925926 0.4843260188087774 0.5555555555555556 0.4885057471264368 0.5555555555555556 0.4895506792058516 0.537962962962963 0.48223615464994773 0.5259259259259259 0.48171368861024033 0.5175925925925926 0.49164054336468127 0.49444444444444446 0.49059561128526646 0.46574074074074073 0.4864158829676071 0.44907407407407407 0.48484848484848486 0.43148148148148147 0.48119122257053293 0.41944444444444445 0.48066875653082547 0.4 0.477533960292581 0.3925925925925926 0.47335423197492166 0.3907407407407407
4 0.4670846394984326 0.537962962962963 0.46290491118077326 0.5425925925925926 0.46238244514106586 0.5518518518518518 0.46394984326018807 0.562037037037037 0.4702194357366771 0.575925925925926 0.4696969696969697 0.6064814814814815 0.4608150470219436 0.6537037037037037 0.4644723092998955 0.6555555555555556 0.46760710553814 0.6509259259259259 0.47387669801462906 0.6296296296296297 0.4754440961337513 0.6092592592592593 0.47701149425287354 0.6064814814814815 0.48119122257053293 0.6074074074074074 0.48589341692789967 0.6175925925925926 0.4832810867293626 0.6268518518518519 0.47648902821316613 0.6370370370370371 0.47596656217345873 0.6444444444444445 0.4832810867293626 0.6768518518518518 0.4832810867293626 0.6861111111111111 0.48066875653082547 0.6925925925925925 0.48171368861024033 0.6981481481481482 0.49007314524555906 0.7018518518518518 0.4947753396029258 0.6990740740740741 0.4952978056426332 0.6888888888888889 0.49059561128526646 0.6722222222222223 0.4890282131661442 0.6555555555555556 0.4890282131661442 0.6509259259259259 0.49111807732497387 0.6472222222222223 0.49843260188087773 0.6481481481481481 0.5208986415882968 0.674074074074074 0.5256008359456635 0.6888888888888889 0.5287356321839081 0.6861111111111111 0.5292580982236155 0.6703703703703704 0.512539184952978 0.6444444444444445 0.5130616509926855 0.6333333333333333 0.5198537095088819 0.6027777777777777 0.5083594566353187 0.5796296296296296 0.49216300940438873 0.562962962962963 0.48066875653082547 0.5574074074074075 0.4843260188087774 0.5481481481481482 0.48066875653082547 0.5472222222222223 0.4785788923719958 0.5425925925925926 0.4717868338557994 0.537962962962963
4 0.5825496342737722 0.587037037037037 0.5783699059561128 0.5916666666666667 0.577324973876698 0.600925925925926 0.5799373040752351 0.6268518518518519 0.5747126436781609 0.6333333333333333 0.5721003134796239 0.6472222222222223 0.5752351097178683 0.6638888888888889 0.5736677115987461 0.6685185185185185 0.577324973876698 0.6777777777777778 0.5804597701149425 0.6787037037037037 0.5851619644723093 0.6731481481481482 0.5888192267502612 0.6814814814814815 0.6013584117032393 0.6666666666666666 0.6024033437826541 0.6611111111111111 0.5987460815047022 0.6472222222222223 0.599791013584117 0.6407407407407407 0.6055381400208987 0.6333333333333333 0.6128526645768025 0.6314814814814815 0.6071055381400209 0.6212962962962963 0.5961337513061651 0.6148148148148148 0.5929989550679206 0.5944444444444444 0.587251828631139 0.587037037037037
4 0.6076280041797283 0.6324074074074074 0.6029258098223615 0.6351851851851852 0.5982236154649948 0.6425925925925926 0.5982236154649948 0.6509259259259259 0.603448275862069 0.6574074074074074 0.6018808777429467 0.6611111111111111 0.6039707419017764 0.6648148148148149 0.5940438871473355 0.6768518518518518 0.5856844305120167 0.7092592592592593 0.5815047021943573 0.7111111111111111 0.5799373040752351 0.7194444444444444 0.5741901776384535 0.7305555555555555 0.5841170323928945 0.7324074074074074 0.5956112852664577 0.7472222222222222 0.5914315569487983 0.7648148148148148 0.5882967607105538 0.7703703703703704 0.5851619644723093 0.7703703703703704 0.5830721003134797 0.7787037037037037 0.5841170323928945 0.8018518518518518 0.58098223615465 0.8287037037037037 0.5815047021943573 0.8333333333333334 0.5846394984326019 0.837037037037037 0.5914315569487983 0.8351851851851851 0.5950888192267503 0.825925925925926 0.6003134796238244 0.8240740740740741 0.6050156739811913 0.8185185185185185 0.619644723092999 0.8324074074074074 0.6264367816091954 0.8314814814814815 0.6206896551724138 0.8203703703703704 0.6154649947753396 0.8018518518518518 0.6118077324973876 0.8 0.6191222570532915 0.7935185185185185 0.6264367816091954 0.7685185185185185 0.6269592476489029 0.7537037037037037 0.6248693834900731 0.7268518518518519 0.6264367816091954 0.7231481481481481 0.6332288401253918 0.7231481481481481 0.6353187042842215 0.7166666666666667 0.6311389759665622 0.7018518518518518 0.6295715778474399 0.6851851851851852 0.6191222570532915 0.6675925925925926 0.6201671891327064 0.6574074074074074 0.6170323928944619 0.6407407407407407 0.6144200626959248 0.6351851851851852 0.6102403343782654 0.6324074074074074
2 0.3207941483803553 0.2175925925925926 0.3160919540229885 0.2212962962962963 0.3155694879832811 0.23148148148148148 0.322884012539185 0.23703703703703705 0.3275862068965517 0.2361111111111111 0.3275862068965517 0.22407407407407406 0.3213166144200627 0.2175925925925926